Ticks,M1 Speed,M1 Current,VelPID Derivative
513.000000,0.000000,4096.000000,0.000000
523.000000,0.000000,4112.384277,0.000000
533.000000,2.319801,3954.261475,0.387592
543.000000,10.496958,3479.496582,1.162192
553.000000,19.416735,3188.798340,0.707895
563.000000,25.183741,2991.899658,0.479798
573.000000,29.244865,2848.853760,0.266116
593.000000,34.632988,2653.423096,0.210456
603.000000,43.026070,2077.651367,1.410494
613.000000,57.261253,1487.289551,1.441437
623.000000,70.467590,989.588928,1.214180
633.000000,81.665146,565.155212,1.035500
643.000000,91.264259,199.655060,0.891760
683.000000,121.679092,-1030.725830,0.642272
693.000000,127.775993,-1268.178955,0.579469
703.000000,133.227737,-1478.490112,0.513190
713.000000,138.060867,-1665.106079,0.455374
723.000000,142.353058,-1830.955933,0.404704
733.000000,146.170120,-1978.532837,0.360117
743.000000,146.754547,-1886.819092,-0.226256
753.000000,143.573898,-1721.305420,-0.404800
763.000000,139.751038,-1573.338135,-0.361073
773.000000,136.340210,-1441.286987,-0.322235
783.000000,130.576981,-1218.104248,-0.256931
803.000000,128.148682,-1124.048706,-0.229518
813.000000,125.979210,-1040.010620,-0.205074
823.000000,120.237122,-663.051270,-0.923183
833.000000,111.509567,-324.927124,-0.825106
843.000000,103.708771,-22.692677,-0.737527
853.000000,96.735672,258.082184,-0.659299
863.000000,90.501968,519.873047,-0.589408
883.000000,78.864288,1016.682190,-0.681651
893.000000,72.727921,1241.904297,-0.549329
903.000000,67.533546,1443.185059,-0.491175
913.000000,62.889023,1623.160645,-0.439186
923.000000,58.736061,1784.089478,-0.392707
933.000000,55.022583,1927.989502,-0.351152
943.000000,51.702034,2056.663818,-0.313997
953.000000,51.039085,1988.665771,0.167938
963.000000,53.554222,1853.540894,0.330545
973.000000,56.679947,1732.415039,0.295578
983.000000,59.475018,1624.102173,0.264310
993.000000,61.974419,1527.246826,0.236351
1003.000000,64.209435,1440.636597,0.211351
1013.000000,66.208046,1363.187500,0.188995
1023.000000,70.596046,1087.493408,0.675025
1033.000000,77.296921,814.922668,0.665417
1043.000000,83.589348,571.080811,0.595036
1053.000000,89.216225,353.030457,0.532098
1063.000000,94.247948,158.042953,0.475819
1073.000000,98.747459,-17.656824,0.425491
1083.000000,102.771072,-181.148361,0.380488
1093.000000,106.906998,-378.132355,0.444898
1103.000000,110.971077,-538.813416,0.370009
1113.000000,114.470016,-674.403442,0.330874
1123.000000,117.598892,-795.652344,0.295878
1133.000000,120.396828,-904.077026,0.264584
1143.000000,122.898834,-1001.034119,0.236600
1153.000000,125.136208,-1087.736084,0.211575
1163.000000,125.016861,-996.987366,-0.223294
1173.000000,122.653526,-895.176392,-0.248663
1183.000000,120.302063,-804.052979,-0.222364
1193.000000,118.199310,-722.567871,-0.198844
1203.000000,116.318954,-649.700928,-0.177814
1213.000000,114.637482,-584.541077,-0.159007
1223.000000,111.474411,-394.555298,-0.465057
1233.000000,106.779099,-200.516464,-0.473763
1243.000000,102.267548,-24.407522,-0.429778
1253.000000,98.203407,139.088715,-0.384321
1263.000000,94.569115,291.558105,-0.343672
1303.000000,81.910614,813.497559,-0.284505
1313.000000,79.220230,917.754700,-0.254414
1323.000000,76.814400,1010.984680,-0.227505
1333.000000,74.663025,1094.354126,-0.203442
1343.000000,72.739189,1168.905884,-0.181925
1353.000000,71.018837,1235.572388,-0.162683
1363.000000,70.719299,1196.854004,0.095560
1373.000000,72.149399,1120.049561,0.187880
1383.000000,73.997597,1045.522949,0.181926
1393.000000,75.717957,978.856201,0.162684
1403.000000,77.256363,919.240479,0.145477
1413.000000,78.632050,865.930237,0.130090
1423.000000,79.862236,818.258362,0.116331
1433.000000,82.198311,677.521851,0.344508
1443.000000,85.753662,527.658264,0.365964
1453.000000,89.285889,387.872955,0.341174
1463.000000,92.512161,262.849487,0.305089
1473.000000,95.397194,151.049438,0.272820
1483.000000,97.977097,51.074024,0.243965
1493.000000,100.284119,-40.530064,0.218162
1503.000000,102.424393,-132.252625,0.210117
1513.000000,104.268288,-206.163315,0.160061
1523.000000,105.781883,-275.430420,0.143131
1533.000000,107.135391,-333.920532,0.127993
1543.000000,108.345741,-380.823639,0.114455
1553.000000,109.428078,-422.765991,0.102350
1563.000000,110.395935,-460.272156,0.091525
1573.000000,110.377342,-423.637665,-0.090166
1583.000000,109.075508,-354.941803,-0.168026
1593.000000,107.486580,-293.368286,-0.150255
1603.000000,106.065712,-238.307266,-0.134363
1613.000000,104.795128,-189.069611,-0.120152
1623.000000,103.658928,-145.040039,-0.107443
1633.000000,102.642899,-105.667053,-0.096080
1643.000000,101.734329,-70.458832,-0.085917
1663.000000,97.020668,166.130814,-0.257480
1673.000000,94.585846,271.188568,-0.230247
1683.000000,92.408546,367.981628,-0.205894
1693.000000,90.461525,443.431732,-0.184117
1703.000000,88.720444,510.901733,-0.164644
1713.000000,87.109146,575.550720,-0.157807
1723.000000,85.651199,630.654053,-0.134436
1733.000000,84.379921,679.917969,-0.120216
1763.000000,81.317459,798.593750,-0.085965
1773.000000,80.504547,830.095215,-0.076871
1783.000000,80.461418,803.988464,0.064302
1793.000000,81.272621,764.300781,0.097025
1803.000000,82.190125,728.746155,0.086762
1813.000000,83.010582,696.952026,0.077586
1823.000000,83.744263,668.520447,0.069380
1833.000000,84.400352,643.096252,0.062041
1853.000000,86.518791,520.091309,0.245559
1863.000000,88.961060,420.567688,0.242967
1873.000000,91.258652,331.532135,0.217269
1883.000000,93.313232,251.913574,0.194289
1893.000000,95.150505,180.716156,0.173740
1903.000000,96.793457,117.048866,0.155364
1913.000000,98.262642,60.115688,0.138931
1923.000000,99.748100,-5.264675,0.157638
1933.000000,101.155807,-59.332642,0.124821
1943.000000,102.336166,-109.790062,0.111620
1953.000000,103.391678,-157.044586,0.099813
1963.000000,104.335556,-201.435730,0.089257
1973.000000,105.179596,-243.265533,0.079816
1983.000000,105.934372,-273.548004,0.071375
1993.000000,105.676598,-225.668945,-0.117648
2003.000000,104.767204,-198.680374,-0.065682
2013.000000,104.146088,-174.611176,-0.058735
2023.000000,103.590668,-153.087875,-0.052522
2033.000000,103.093994,-133.840958,-0.046967
2043.000000,102.649857,-116.629684,-0.042000
2053.000000,101.348579,-29.475304,-0.213465
2063.000000,99.132553,67.666214,-0.229298
2073.000000,96.866951,166.330383,-0.223972
2083.000000,94.748985,258.603271,-0.200283
2093.000000,92.855026,344.403351,-0.179100
2103.000000,91.161392,410.034729,-0.160157
2113.000000,89.646881,468.724335,-0.143217
2123.000000,88.292564,521.206665,-0.128070
2133.000000,87.081482,568.138184,-0.114525
2143.000000,86.201630,593.981567,-0.062888
2153.000000,85.606941,617.027161,-0.056237
2163.000000,85.075142,637.635010,-0.050288
2183.000000,84.174339,672.542786,-0.040214
2193.000000,84.220375,653.440979,0.046984
2203.000000,84.987968,610.561829,0.104917
2213.000000,85.980110,572.114563,0.093821
2223.000000,86.867317,537.733948,0.083897
2233.000000,87.660690,506.989410,0.075024
2243.000000,88.370140,479.497040,0.067088
2263.000000,90.169853,385.463745,0.169991
2273.000000,91.837440,318.400970,0.163702
2283.000000,93.385475,258.412292,0.146387
2293.000000,94.769775,204.768158,0.130905
2303.000000,96.007660,156.797974,0.117059
2313.000000,97.114616,113.901443,0.104678
2323.000000,98.104500,75.542053,0.093607
2333.000000,98.978241,42.148121,0.081480
2363.000000,100.707413,-24.018967,0.046246
2373.000000,101.144722,-43.170555,0.041354
2383.000000,101.535782,-61.135620,0.036980
2393.000000,101.885483,-78.039543,0.033069
2403.000000,101.820534,-62.813774,-0.043909
2413.000000,101.190727,-30.996584,-0.081015
2423.000000,100.424622,-1.427284,-0.072446
2433.000000,99.739540,26.063198,-0.064783
2443.000000,99.126923,51.695259,-0.051804
2463.000000,98.089211,98.148087,-0.046325
2473.000000,97.213394,155.444000,-0.126596
2483.000000,95.818840,217.579651,-0.151617
2493.000000,94.445175,268.370392,-0.123890
2503.000000,93.350876,307.638367,-0.095757
2513.000000,92.342361,350.904297,-0.105669
2523.000000,91.343117,389.626678,-0.094492
2533.000000,90.449554,424.253662,-0.084499
2543.000000,89.747780,447.496826,-0.056635
2553.000000,89.212227,468.250397,-0.050644
2563.000000,88.733307,486.809143,-0.045288
2573.000000,88.305046,503.405121,-0.040498
2583.000000,87.922081,518.245605,-0.036214
2593.000000,87.579620,531.516541,-0.032384
2603.000000,87.273384,543.383728,-0.028959
2613.000000,87.574615,508.348938,0.085994
2623.000000,88.387810,476.836212,0.076899
2633.000000,89.197968,442.070892,0.084908
2643.000000,90.000900,410.955902,0.075928
2653.000000,90.819046,375.183411,0.087381
2663.000000,91.645355,343.162628,0.078139
2673.000000,92.384262,314.528503,0.069875
2683.000000,93.322548,266.894531,0.116480
2693.000000,94.321037,232.385590,0.084121
2703.000000,95.116516,201.559128,0.075224
2713.000000,95.827866,173.993591,0.067267
2723.000000,96.463974,149.343185,0.060153
2733.000000,97.032799,127.300262,0.053790
2743.000000,97.541466,107.588440,0.048102
2753.000000,97.907639,97.001823,0.025757
2763.000000,98.108292,90.969620,0.014683
2773.000000,98.247139,85.588959,0.013130
2783.000000,98.371300,80.777298,0.011742
2793.000000,98.482330,76.474953,0.010499
2803.000000,98.581612,72.627502,0.009389
2813.000000,98.424347,88.717453,-0.039478
2823.000000,97.979500,108.861481,-0.049219
2833.000000,97.399620,135.981659,-0.066280
2843.000000,96.772858,160.270020,-0.059270
2853.000000,96.212379,181.989349,-0.053001
2863.000000,95.711182,201.411667,-0.047395
2873.000000,95.262993,218.779877,-0.042383
2903.000000,93.749420,286.382721,-0.070781
2913.000000,93.080093,312.320282,-0.063294
2923.000000,92.481552,335.514679,-0.056600
2933.000000,91.946320,356.256042,-0.050614
2943.000000,91.467697,374.803589,-0.045261
2953.000000,91.039696,391.389221,-0.040473
2963.000000,90.903015,386.690308,0.011681
2983.000000,90.665367,402.291901,-0.018037
2993.000000,90.494789,408.901917,-0.016130
3003.000000,90.342255,414.812866,-0.014424
3013.000000,90.205856,420.098785,-0.012899
3023.000000,90.427216,397.573608,0.055266
3033.000000,90.924080,379.365204,0.044411
3043.000000,91.344048,363.090942,0.039713
3053.000000,91.982819,327.644531,0.086727
3063.000000,92.742851,300.632843,0.065863
3073.000000,93.359962,276.951172,0.057784
3083.000000,93.960754,251.460999,0.062250
3093.000000,94.549408,228.649902,0.055665
3103.000000,95.195961,198.712936,0.073158
3113.000000,95.887772,171.904312,0.065420
3123.000000,96.506409,147.931107,0.058501
3133.000000,97.059616,126.493469,0.052313
3153.000000,97.996689,90.180351,0.041833
3163.000000,98.392273,74.850601,0.037408
3173.000000,98.416992,87.258926,-0.030566
3183.000000,98.127953,98.459534,-0.027332
3193.000000,97.869484,108.475517,-0.024442
3203.000000,97.638351,117.432259,-0.021857
3213.000000,97.245697,140.203003,-0.055728
3233.000000,96.301819,174.571762,-0.033987
3243.000000,95.837379,198.381119,-0.058225
3253.000000,95.286774,219.717758,-0.052067
3263.000000,94.794411,238.797714,-0.046560
3273.000000,94.354118,255.859848,-0.041636
3283.000000,93.960396,271.117065,-0.037231
3293.000000,93.608322,284.760712,-0.033294
3303.000000,93.273453,298.551025,-0.033669
3313.000000,92.909286,314.522888,-0.039015
3333.000000,92.210426,341.604736,-0.031198
3343.000000,91.915405,353.037354,-0.027898
3353.000000,91.651581,363.260925,-0.024948
3363.000000,91.415665,372.403046,-0.022309
3373.000000,91.382088,366.498169,0.014564
3383.000000,91.574173,356.846405,0.023600
3393.000000,91.797348,348.197937,0.021104
3403.000000,91.996910,340.464294,0.018872
3413.000000,92.175377,333.548828,0.016875
3423.000000,92.334961,327.364655,0.015091
3433.000000,92.477661,321.834564,0.013495
3443.000000,92.725441,307.351166,0.035448
3453.000000,93.092125,291.863159,0.037822
3463.000000,93.449783,278.003174,0.033822
3473.000000,93.781052,264.700958,0.032471
3503.000000,94.437668,242.975571,0.006289
3513.000000,94.623032,230.678345,0.030118
3523.000000,94.896393,220.550095,0.024706
3533.000000,95.124298,211.950882,0.020979
3543.000000,95.322685,204.262878,0.018761
3553.000000,95.517250,196.025696,0.020116
3563.000000,95.707481,188.654099,0.017989
3573.000000,95.877586,182.062225,0.016086
3583.000000,95.886642,187.522278,-0.013448
3613.000000,95.423164,203.507172,0.001742
3623.000000,95.342369,210.589920,-0.017368
3633.000000,95.178123,216.954803,-0.015532
3643.000000,94.991196,225.825668,-0.021682
3653.000000,94.863411,227.639359,-0.004359
3663.000000,94.702019,238.774948,-0.027278
3673.000000,94.444069,248.770920,-0.024393
3683.000000,94.213402,257.709839,-0.021813
3693.000000,94.007133,265.703308,-0.019506
3703.000000,93.822678,272.851044,-0.017442
3713.000000,93.657730,279.243134,-0.015598
3723.000000,93.427261,291.544708,-0.030091
3733.000000,93.322952,288.264557,0.008161
3743.000000,93.400124,285.273773,0.007298
3753.000000,93.469139,282.599365,0.006526
3763.000000,93.530853,280.207947,0.005836
3773.000000,93.586044,278.069427,0.005780
3793.000000,93.735825,270.405243,0.012962
3803.000000,93.835510,267.472260,0.007137
3813.000000,93.897285,265.310760,0.005270
3823.000000,93.964287,262.017181,0.008052
3833.000000,94.040428,259.066437,0.007201
3843.000000,94.108521,256.427673,0.006439
3853.000000,94.163689,254.522247,0.004645
3873.000000,94.295631,248.711853,0.006701
3883.000000,94.359001,246.256332,0.005992
3893.000000,94.415665,244.060593,0.005358
3903.000000,94.466331,242.096863,0.004792
3913.000000,94.511642,240.341019,0.004285
3923.000000,94.552162,238.770905,0.003831
3933.000000,94.648476,232.597839,0.015116
3943.000000,94.605453,241.819687,-0.022665
3953.000000,94.373947,251.488464,-0.023609
3963.000000,94.308060,247.649261,0.009505
3973.000000,94.463745,238.942657,0.021304
3983.000000,94.665199,231.136154,0.019050
3993.000000,94.796707,228.016098,0.007571
4003.000000,94.836838,227.739441,0.000648
4013.000000,94.842957,227.502151,0.000579
4053.000000,94.547035,242.340210,-0.013183
4063.000000,94.536819,238.086792,0.010479
4073.000000,94.515747,243.785110,-0.014010
4083.000000,94.420456,245.966888,-0.005292
4093.000000,94.310333,252.674896,-0.016422
4103.000000,94.123573,261.190826,-0.020808
4113.000000,93.969719,265.409393,-0.010257
4123.000000,93.818359,273.483215,-0.019749
4283.000000,94.436317,242.446655,0.009248
4293.000000,94.523766,239.057877,0.008270
4303.000000,94.601967,236.027359,0.007395
4313.000000,94.671898,233.317337,0.006613
4323.000000,94.734436,230.893997,0.005914
4333.000000,94.790359,228.726746,0.005289
4343.000000,94.774559,232.012344,-0.008075
4363.000000,94.667343,237.213120,-0.012173
4373.000000,94.486420,246.897385,-0.023689
4383.000000,94.262405,255.578354,-0.021184
4393.000000,94.062088,263.341095,-0.018943
4403.000000,93.882950,270.282806,-0.016940
4413.000000,93.842934,266.952179,0.008232
4423.000000,93.957970,260.983246,0.014598
4433.000000,94.096016,255.633835,0.011674
4453.000000,94.269768,251.341324,-0.001251
4463.000000,94.257935,251.799988,-0.001119
4473.000000,94.247353,252.209869,-0.001000
4483.000000,94.332306,245.082321,0.017475
4493.000000,94.437477,243.447632,0.003937
4503.000000,94.480431,241.550659,0.004634
4513.000000,94.478470,243.486191,-0.004763
4523.000000,94.353325,251.590240,-0.019846
4533.000000,94.191399,256.819092,-0.012737
4543.000000,94.070953,261.486298,-0.011389
4553.000000,93.991859,263.389252,-0.004619
4563.000000,93.942467,265.535736,-0.005243
4573.000000,93.892883,267.457275,-0.004689
4583.000000,93.848549,269.175262,-0.004192
4593.000000,93.971985,257.767029,0.027981
4623.000000,94.114594,255.959808,0.007549
4633.000000,94.163086,255.010590,0.002296
4643.000000,94.184807,254.168930,0.002054
4653.000000,94.209946,252.962265,0.002950
4663.000000,94.249290,250.972916,0.004865
4673.000000,94.235207,253.959167,-0.007339
4683.000000,94.251625,249.835922,0.010136
4693.000000,94.287399,250.890640,-0.002626
4703.000000,94.302620,246.677933,0.004870
4723.000000,94.400162,244.893631,0.004354
4733.000000,94.441338,243.297897,0.003894
4743.000000,94.478157,241.871277,0.003481
4753.000000,94.554001,237.188736,0.011464
4763.000000,94.530800,243.434479,-0.015356
4773.000000,94.414200,246.790314,-0.008164
4783.000000,94.417099,243.423523,0.008286
4803.000000,94.565521,237.672363,0.006625
4813.000000,94.628174,235.244339,0.005925
4823.000000,94.569756,242.157150,-0.016969
4833.000000,94.503708,240.881119,0.003196
4843.000000,94.439514,247.203903,-0.015511
4853.000000,94.321442,250.617264,-0.008305
4863.000000,94.242912,256.381866,-0.006641
4883.000000,94.109886,258.815521,-0.005939
4893.000000,94.053734,260.991577,-0.005310
4903.000000,94.052155,259.077026,0.004714
4913.000000,94.085297,258.257568,0.001990
4923.000000,94.164192,252.759506,0.013469
4933.000000,94.177109,256.907867,-0.010223
4953.000000,94.169441,254.996979,0.001048
4963.000000,94.142159,257.564941,-0.006299
4973.000000,94.142670,255.104233,0.006057
4983.000000,94.165611,255.610062,-0.001264
4993.000000,94.159386,255.618668,-0.000016
5003.000000,94.139198,257.214478,-0.003912
5013.000000,94.127960,256.603973,0.001512
5033.000000,94.106300,258.141083,-0.001778
5043.000000,94.129539,255.612915,0.006204
5053.000000,94.159599,255.610535,-0.000019
5063.000000,94.219498,250.848434,0.011673
5073.000000,94.244049,253.384064,-0.006262
5083.000000,94.216309,253.180481,0.000524
5093.000000,94.255600,250.263229,0.007149
5103.000000,94.263115,252.412827,-0.005298
5113.000000,94.344627,243.907578,0.020869
5123.000000,94.404648,247.160492,-0.008057
5133.000000,94.328453,250.113464,-0.007206
5143.000000,94.200226,257.523041,-0.018134
5153.000000,94.028748,264.168060,-0.016216
5163.000000,93.875404,270.110260,-0.014500
5193.000000,94.079094,254.894760,0.020307
5203.000000,94.271133,247.453125,0.018159
5213.000000,94.442856,240.798416,0.016239
5223.000000,94.596413,234.847794,0.014521
5233.000000,94.733734,229.526215,0.012986
5243.000000,94.796448,229.536987,-0.000079
5253.000000,94.801430,229.111343,0.001044
5263.000000,94.734055,234.860580,-0.014097
5283.000000,94.481537,244.645844,-0.011272
5293.000000,94.374939,248.776550,-0.010080
5303.000000,94.279617,252.470490,-0.009014
5313.000000,94.320267,245.781540,0.016432
5323.000000,94.427025,243.620392,0.005231
5333.000000,94.404961,247.380737,-0.009238
5343.000000,94.383400,245.543015,0.004542
5353.000000,94.426353,243.878784,0.004061
5363.000000,94.464760,242.390579,0.003632
5373.000000,94.499100,241.059631,0.003248
5383.000000,94.475456,244.184235,-0.007672
5393.000000,94.422928,245.406326,-0.002965
5413.000000,94.298424,249.068573,0.004315
5423.000000,94.322060,248.850159,0.000518
5433.000000,94.326965,248.660080,0.000464
5443.000000,94.331345,248.490005,0.000415
5453.000000,94.215103,257.876312,-0.023009
5463.000000,94.020409,264.491333,-0.016122
5473.000000,93.779251,277.439301,-0.031673
5483.000000,93.599899,279.508087,-0.004944
5493.000000,93.630402,275.188263,0.010609
5503.000000,93.616280,280.384308,-0.012779
5513.000000,93.418182,284.316498,0.016977
5533.000000,93.537392,278.095123,0.015182
5543.000000,93.663788,273.894531,0.010236
5553.000000,93.706215,274.458252,-0.001423
5563.000000,93.664146,277.250916,-0.006840
5573.000000,93.622353,277.940643,-0.001663
5583.000000,93.606628,278.549988,-0.001487
5593.000000,93.658379,273.871552,0.011474
5603.000000,93.815514,265.806335,0.019724
5613.000000,94.056389,254.263672,0.028214
5623.000000,94.323189,243.924713,0.025230
5633.000000,94.490250,240.356598,0.008645
5643.000000,94.571999,237.188843,0.007730
5653.000000,94.696602,230.267990,0.016933
5663.000000,94.779472,230.194809,0.000111
5673.000000,94.780533,230.153854,0.000100
5683.000000,94.781479,230.116974,0.000090
5693.000000,94.782318,230.084457,0.000079
5703.000000,94.783081,230.055054,0.000072
5713.000000,94.783752,230.028793,0.000064
5723.000000,94.784363,230.005356,0.000057
5743.000000,94.705048,229.501190,0.010489
5763.000000,94.845573,225.657181,0.009380
5773.000000,94.934273,222.219940,0.008388
5783.000000,95.013596,219.146286,0.007500
5793.000000,94.892830,231.613266,-0.030589
5803.000000,94.640755,239.870407,-0.020117
5813.000000,94.473412,245.425873,-0.013537
